Torque vs Output Power 
Output Power (W)
Torque (N.m)
27210.9	346.806494
54361.8	693.542926
80682.4	1030.371538
105975	1354.732631
130078	1664.533025
153068	1960.692587
174738	2240.511242
194953	2502.231147
214089	2750.616356
232918	2995.557209
267056	3441.566890
296394	3827.383696
321934	4165.647017
344178	4462.532816
363581	4723.738079
379196	4936.678328
392145	5115.721636
402991	5268.006000
412029	5397.234300
419517	5506.652118
429573	5667.864914
431657	5725.024386
Torque
