Slip vs Output Power 
Output Power (W)
Slip
27919.8	0.001000
55769.5	0.002000
82782.2	0.003000
108764	0.004000
133557	0.005000
157242	0.006000
179603	0.007000
200512	0.008000
220353	0.009000
239876	0.010000
275267	0.012000
305770	0.014000
332359	0.016000
355520	0.018000
375706	0.020000
391897	0.022000
405415	0.024000
416721	0.026000
426118	0.028000
433872	0.030000
444043	0.035000
446218	0.040000
Slip
