Efficiency vs Output Power 
utput Power (W)
Efficiency (%)
27919.8	78.764936
55769.5	87.711658
82782.2	90.909455
108764	92.427607
133557	93.229218
157242	93.666396
179603	93.886424
200512	93.967918
220353	93.963342
239876	93.906896
275267	93.658978
305770	93.298299
332359	92.875035
355520	92.413491
375706	91.928093
391897	91.421773
405415	90.905677
416721	90.384496
426118	89.861149
433872	89.337754
444043	88.027248
446218	86.735807
Efficiency
